cell | V (mV),INa | INa (uA_per_uF)
-85.7818,-4.20E-06
-85.5822,-4.43E-06
-85.3832,-4.86E-06
-85.1847,-5.35E-06
-84.9868,-5.89E-06
-84.7894,-6.49E-06
-84.5925,-7.14E-06
-84.3962,-7.86E-06
-84.2003,-8.65E-06
-84.005,-9.51E-06
-83.8101,-1.05E-05
-83.6158,-1.15E-05
-83.4219,-1.26E-05
-83.2285,-1.39E-05
-83.0355,-1.52E-05
-82.8429,-1.67E-05
-82.6508,-1.84E-05
-82.4592,-2.02E-05
-82.2679,-2.21E-05
-82.0771,-2.42E-05
-81.8866,-2.66E-05
-81.6966,-2.91E-05
-81.5069,-3.19E-05
-81.3176,-3.50E-05
-81.1287,-3.83E-05
-80.9402,-4.19E-05
-80.752,-4.59E-05
-80.5641,-5.02E-05
-80.3766,-5.49E-05
-80.1895,-6.01E-05
-80.0026,-6.57E-05
-79.8161,-7.18E-05
-79.6299,-7.85E-05
-79.4439,-8.58E-05
-79.2583,-9.37E-05
-79.073,-0.000102383
-78.888,-0.000111809
-78.7032,-0.000122077
-78.5187,-0.000133257
-78.3344,-0.000145427
-78.1505,-0.000158671
-77.9667,-0.000173082
-77.7832,-0.000188757
-77.6,-0.000205806
-77.417,-0.00022435
-77.2342,-0.000244519
-77.0516,-0.000266454
-76.8692,-0.000290314
-76.6871,-0.000316267
-76.5051,-0.000344481
-76.3233,-0.000375145
-76.1418,-0.000408473
-75.9604,-0.000444693
-75.7791,-0.000484039
-75.5981,-0.000526741
-75.4172,-0.000573089
-75.2365,-0.000623376
-75.0559,-0.000677917
-74.8755,-0.000737099
-74.6952,-0.000801285
-74.5151,-0.000870883
-74.3351,-0.000946337
-74.1552,-0.00102817
-73.9754,-0.00111695
-73.7958,-0.00121324
-73.6162,-0.0013177
-73.4368,-0.00143101
-73.2575,-0.00155382
-73.0783,-0.00168696
-72.8992,-0.00183131
-72.7201,-0.00198777
-72.5412,-0.0021572
-72.3623,-0.00234067
-72.1835,-0.00253926
-72.0048,-0.00275413
-71.8261,-0.00298663
-71.6475,-0.00323819
-71.469,-0.00351025
-71.2905,-0.00380439
-71.112,-0.00412238
-70.9336,-0.00446656
-70.7553,-0.00483912
-70.577,-0.00524247
-70.3987,-0.00567867
-70.2204,-0.00615028
-70.0422,-0.00665995
-69.864,-0.00721067
-69.6858,-0.0078057
-69.5076,-0.00844855
-69.3294,-0.00914306
-69.1512,-0.00989305
-68.9731,-0.0107031
-68.7949,-0.0115779
-68.6167,-0.0125227
-68.4385,-0.0135427
-68.2603,-0.0146438
-68.0821,-0.0158321
-67.9039,-0.0171143
-67.7256,-0.0184977
-67.5473,-0.0199899
-67.369,-0.0215992
-67.1906,-0.0233348
-67.0122,-0.0252062
-66.8337,-0.0272239
-66.6552,-0.0293989
-66.4767,-0.0317432
-66.2981,-0.0342695
-66.1194,-0.0369915
-65.9406,-0.0399239
-65.7618,-0.0430823
-65.5829,-0.0464839
-65.404,-0.0501468
-65.2249,-0.0540902
-65.0458,-0.0583351
-64.8665,-0.0629038
-64.6872,-0.0678204
-64.5077,-0.0731101
-64.3282,-0.0788005
-64.1485,-0.0849213
-63.9687,-0.0915042
-63.7888,-0.098583
-63.6087,-0.106194
-63.4285,-0.114375
-63.2481,-0.123169
-63.0676,-0.132619
-62.8869,-0.142772
-62.706,-0.153681
-62.5249,-0.165398
-62.3437,-0.177982
-62.1622,-0.191494
-61.9805,-0.206002
-61.7986,-0.221575
-61.6164,-0.23829
-61.434,-0.256228
-61.2513,-0.275475
-61.0684,-0.296126
-60.8851,-0.318279
-60.7015,-0.342041
-60.5176,-0.367525
-60.3333,-0.394854
-60.1487,-0.424157
-59.9636,-0.455573
-59.7782,-0.489251
-59.5923,-0.52535
-59.4059,-0.564041
-59.219,-0.605504
-59.0316,-0.649934
-58.8437,-0.697539
-58.6551,-0.748548
-58.466,-0.803197
-58.2761,-0.861743
-58.0856,-0.92446
-57.8943,-0.991651
-57.7022,-1.06363
-57.5092,-1.14073
-57.3154,-1.22333
-57.1206,-1.31181
-56.9247,-1.40661
-56.7278,-1.50818
-56.5297,-1.617
-56.3304,-1.73361
-56.1298,-1.85858
-55.9277,-1.99252
-55.7242,-2.1361
-55.5191,-2.29003
-55.3122,-2.45511
-55.1035,-2.63218
-54.8929,-2.82216
-54.6802,-3.02604
-54.4653,-3.24492
-54.2479,-3.47996
-54.028,-3.73247
-53.8054,-4.00383
-53.5798,-4.2956
-53.3511,-4.60946
-53.119,-4.94723
-52.8832,-5.31096
-52.6436,-5.70288
-52.3997,-6.12545
-52.1514,-6.58138
-51.8981,-7.07367
-51.6396,-7.60563
-51.3754,-8.18094
-51.1051,-8.8037
-50.8281,-9.47848
-50.544,-10.2104
-50.2521,-11.0051
-49.9517,-11.8689
-49.6422,-12.809
-49.3227,-13.8334
-48.9923,-14.9512
-48.6501,-16.1725
-48.2949,-17.5087
-47.9255,-18.973
-47.5406,-20.58
-47.1387,-22.3465
-46.718,-24.2914
-46.2767,-26.4363
-45.8125,-28.8058
-45.3233,-31.4276
-44.8062,-34.3332
-44.2582,-37.5585
-43.676,-41.1435
-43.0556,-45.1336
-42.3929,-49.5788
-41.6829,-54.5333
-40.9203,-60.0551
-40.099,-66.2033
-39.2128,-72.9848
-38.2547,-80.5332
-37.2165,-88.9329
-36.0894,-98.2562
-34.8637,-108.566
-33.5293,-119.908
-32.0758,-132.296
-30.4928,-145.699
-28.7705,-160.022
-26.9006,-175.084
-24.8771,-190.599
-22.6976,-206.157
-20.3642,-221.224
-17.8853,-235.155
-15.2759,-247.242
-12.5581,-256.779
-9.76062,-263.162
-6.91749,-265.975
-4.06551,-265.066
-1.24172,-260.555
1.51934,-252.813
4.18776,-242.388
6.7396,-229.917
9.15745,-216.055
11.4303,-201.407
13.5526,-186.493
15.5237,-171.732
17.3467,-157.439
19.0271,-143.835
20.5723,-131.059
21.9909,-119.187
23.292,-108.245
24.4847,-98.2236
25.578,-89.0896
26.5805,-80.7937
27.5004,-73.2781
28.3451,-66.4813
29.1216,-60.3412
29.8363,-54.7976
30.495,-49.7933
31.1029,-45.2753
31.6649,-41.1947
32.1853,-37.5071
32.668,-34.1725
33.1164,-31.1547
33.5338,-28.4213
33.923,-25.9434
34.2867,-23.6952
34.6272,-21.6536
34.9466,-19.798
35.2468,-18.1102
35.5296,-16.5737
35.7965,-15.1739
36.0489,-13.8977
36.2882,-12.7334
36.5155,-11.6706
36.7319,-10.6997
36.9383,-9.8124
37.1356,-9.001
37.3247,-8.25866
37.5062,-7.5792
37.6808,-6.95703
37.8492,-6.38709
38.0118,-5.86482
38.1692,-5.38606
38.3218,-4.94706
38.4701,-4.5444
38.6144,-4.17498
38.7552,-3.83598
38.8926,-3.52482
39.027,-3.23915
39.1588,-2.97685
39.288,-2.73596
39.415,-2.51471
39.54,-2.31145
39.6631,-2.12471
39.7846,-1.95312
39.9046,-1.79544
40.0232,-1.65053
40.1405,-1.51735
40.2568,-1.39493
40.3721,-1.2824
40.4866,-1.17895
40.6003,-1.08385
40.7133,-0.996413
40.8256,-0.916028
40.9375,-0.842121
41.049,-0.774167
41.16,-0.711686
41.2707,-0.654237
41.3812,-0.601413
41.4914,-0.552842
41.6015,-0.508182
41.5116,-0.471396
41.422,-0.437264
41.3326,-0.405581
41.2435,-0.37618
41.1547,-0.348901
41.0663,-0.323593
40.9782,-0.300117
40.8906,-0.278346
40.8034,-0.258148
40.7167,-0.239406
40.6305,-0.222018
40.5448,-0.205887
40.4596,-0.190924
40.375,-0.177042
40.2909,-0.164163
40.2074,-0.152216
40.1245,-0.141133
40.0423,-0.130853
39.9606,-0.121317
39.8796,-0.112473
39.7992,-0.10427
39.7195,-0.0966624
39.6405,-0.0896066
39.5621,-0.083063
39.4845,-0.0769948
39.4075,-0.0713674
39.3313,-0.0661491
39.2557,-0.0613103
39.1809,-0.0568235
39.1068,-0.0526631
39.0334,-0.0488056
38.9608,-0.0452292
38.8889,-0.0419137
38.8178,-0.03884
38.7474,-0.0359907
38.6777,-0.0333493
38.6088,-0.0309007
38.5407,-0.028631
38.4733,-0.026527
38.4067,-0.0245769
38.3409,-0.0227694
38.2758,-0.0210942
38.2114,-0.0195417
38.1478,-0.0181029
38.085,-0.0167695
38.023,-0.0155338
37.9617,-0.0143887
37.9011,-0.0133277
37.8413,-0.0123445
37.7823,-0.0114335
37.724,-0.0105895
37.6665,-0.00980753
37.6097,-0.00908303
37.5536,-0.00841191
37.4983,-0.00779016
37.4437,-0.00721412
37.3898,-0.00668058
37.3367,-0.00618632
37.2843,-0.00572841
37.2326,-0.0053043
37.1816,-0.00491145
37.1313,-0.00454753
37.0817,-0.00421049
37.0328,-0.00389832
36.9846,-0.00360919
36.937,-0.00334144
36.8902,-0.00309349
36.844,-0.00286385
36.7985,-0.00265122
36.7536,-0.00245432
36.7094,-0.00227199
36.6659,-0.00210316
36.6229,-0.00194684
36.5807,-0.00180208
36.539,-0.00166806
36.4979,-0.00154397
36.4575,-0.00142907
36.4176,-0.0013227
36.3784,-0.00122422
36.3397,-0.00113305
36.3017,-0.00104865
36.2642,-0.000970522
36.2272,-0.000898194
36.1909,-0.000831242
36.155,-0.000769272
36.1197,-0.000711906
36.085,-0.000658814
36.0508,-0.000609694
36.0171,-0.00056424
35.9839,-0.000522171
35.9512,-0.000483215
35.919,-0.000447201
35.8874,-0.000413906
35.8562,-0.000383098
35.8254,-0.000354568
35.7952,-0.000328113
35.7654,-0.000303708
35.736,-0.000281128
35.7071,-0.000260222
35.6787,-0.000240844
35.6506,-0.00022287
35.623,-0.000206278
35.5958,-0.000190915
35.5691,-0.000176683
35.5427,-0.000163492
35.5167,-0.000151271
35.4911,-0.000139967
35.4659,-0.000129502
35.4411,-0.000119813
35.4166,-0.000110843
35.3925,-0.000102543
35.3687,-9.49E-05
35.3453,-8.78E-05
35.3223,-8.12E-05
35.2995,-7.51E-05
35.2771,-6.95E-05
35.2551,-6.44E-05
35.2333,-5.96E-05
35.2118,-5.52E-05
35.1907,-5.12E-05
35.1698,-4.74E-05
35.1493,-4.39E-05
35.129,-4.07E-05
35.109,-3.78E-05
35.0892,-3.51E-05
35.0698,-3.27E-05
35.0506,-3.05E-05
35.0316,-2.84E-05
35.0129,-2.65E-05
34.9945,-2.46E-05
34.9762,-2.29E-05
34.9583,-2.13E-05
34.9405,-1.99E-05
34.923,-1.87E-05
34.9057,-1.75E-05
34.8886,-1.64E-05
34.8717,-1.53E-05
34.855,-1.43E-05
34.8385,-1.33E-05
34.8222,-1.24E-05
34.8061,-1.16E-05
34.7902,-1.08E-05
34.7745,-1.01E-05
34.7589,-9.44E-06
34.7436,-8.79E-06
34.7284,-8.17E-06
34.7133,-7.58E-06
34.6984,-7.02E-06
34.6837,-6.50E-06
34.6691,-6.00E-06
34.6547,-5.54E-06
34.6404,-5.11E-06
34.6263,-4.71E-06
34.6123,-4.34E-06
34.5984,-4.01E-06
34.5847,-3.69E-06
34.5711,-3.40E-06
34.5576,-3.13E-06
34.5442,-2.88E-06
34.531,-2.65E-06
34.5178,-2.45E-06
34.5048,-2.26E-06
34.4919,-2.09E-06
34.4791,-1.94E-06
34.4664,-1.81E-06
34.4538,-1.69E-06
34.4413,-1.59E-06
34.4289,-1.49E-06
34.4166,-1.40E-06
34.4043,-1.32E-06
34.3922,-1.23E-06
34.3801,-1.15E-06
34.3681,-1.09E-06
34.3562,-1.04E-06
34.3444,-9.83E-07
34.3327,-9.31E-07
34.321,-8.80E-07
34.3094,-8.28E-07
34.2979,-7.74E-07
34.2864,-7.20E-07
34.275,-6.71E-07
34.2636,-6.24E-07
34.2523,-5.77E-07
34.2411,-5.31E-07
34.23,-4.88E-07
34.2188,-4.47E-07
34.2078,-4.11E-07
34.1968,-3.76E-07
34.1858,-3.37E-07
34.1749,-3.01E-07
34.164,-2.66E-07
34.1532,-2.35E-07
34.1425,-2.07E-07
34.1317,-1.83E-07
34.121,-1.64E-07
34.1104,-1.49E-07
34.0998,-1.32E-07
34.0892,-1.18E-07
34.0787,-1.06E-07
34.0682,-9.61E-08
34.0577,-8.81E-08
34.0472,-8.15E-08
34.0368,-7.58E-08
34.0264,-7.10E-08
34.0161,-7.00E-08
34.0058,-7.00E-08
33.9955,-7.07E-08
33.9852,-7.16E-08
33.975,-7.21E-08
33.9647,-7.18E-08
33.9545,-6.98E-08
33.9444,-6.64E-08
33.9342,-6.63E-08
33.9241,-6.59E-08
33.9139,-6.50E-08
33.9038,-6.35E-08
33.8938,-6.14E-08
33.8837,-5.87E-08
33.8736,-5.54E-08
33.8636,-5.14E-08
33.8536,-4.62E-08
33.8436,-4.03E-08
33.8336,-3.38E-08
33.8236,-2.68E-08
33.8137,-1.96E-08
33.8037,-1.22E-08
33.7938,-5.06E-09
33.7839,1.58E-09
33.774,7.35E-09
33.764,1.18E-08
33.7542,1.45E-08
33.7443,1.50E-08
33.7344,2.17E-08
33.7245,2.92E-08
33.7147,3.66E-08
33.7048,4.37E-08
33.695,5.04E-08
33.6851,5.64E-08
33.6753,6.16E-08
33.6655,6.57E-08
33.6557,6.85E-08
33.6458,6.96E-08
33.636,6.89E-08
33.6262,6.58E-08
33.6164,6.55E-08
33.6066,6.64E-08
33.5968,6.68E-08
33.5871,6.67E-08
33.5773,6.61E-08
33.5675,6.50E-08
33.5577,6.34E-08
33.5479,6.14E-08
33.5382,5.89E-08
33.5284,5.61E-08
33.5187,5.28E-08
33.5089,4.93E-08
33.4991,4.54E-08
33.4894,4.14E-08
33.4796,3.72E-08
33.4699,3.29E-08
33.4601,2.87E-08
33.4504,2.45E-08
33.4406,2.05E-08
33.4309,1.67E-08
33.4211,1.33E-08
33.4114,1.05E-08
33.4016,8.21E-09
33.3919,6.69E-09
33.3822,5.26E-09
33.3724,2.73E-09
33.3627,4.45E-10
33.353,-1.57E-09
33.3432,-3.31E-09
33.3335,-4.76E-09
33.3238,-5.92E-09
33.314,-6.78E-09
33.3043,-7.35E-09
33.2946,-7.63E-09
33.2848,-7.63E-09
33.2751,-7.37E-09
33.2654,-6.87E-09
33.2556,-6.13E-09
33.2459,-5.21E-09
33.2362,-4.13E-09
33.2265,-2.94E-09
33.2167,-1.67E-09
33.207,-3.92E-10
33.1973,8.51E-10
33.1876,1.99E-09
33.1779,2.95E-09
33.1681,3.67E-09
33.1584,4.05E-09
33.1487,4.00E-09
33.139,5.05E-09
33.1293,6.10E-09
33.1196,7.07E-09
33.1098,7.95E-09
33.1001,8.70E-09
33.0904,9.32E-09
33.0807,9.79E-09
33.071,1.01E-08
33.0613,1.02E-08
33.0516,1.01E-08
33.0419,9.78E-09
33.0322,9.23E-09
33.0225,8.77E-09
33.0128,8.28E-09
33.0031,7.70E-09
32.9934,7.03E-09
32.9837,6.30E-09
32.974,5.53E-09
32.9643,4.74E-09
32.9546,3.97E-09
32.945,3.25E-09
32.9353,2.61E-09
32.9256,2.09E-09
32.9159,1.75E-09
32.9062,1.18E-09
32.8966,3.20E-10
32.8869,-5.15E-10
32.8772,-1.31E-09
32.8676,-2.06E-09
32.8579,-2.74E-09
32.8482,-3.33E-09
32.8386,-3.82E-09
32.8289,-4.18E-09
32.8193,-4.41E-09
32.8096,-4.48E-09
32.8,-4.36E-09
32.7903,-4.22E-09
32.7807,-4.24E-09
32.7711,-4.20E-09
32.7614,-4.09E-09
32.7518,-3.93E-09
32.7422,-3.72E-09
32.7326,-3.46E-09
32.7229,-3.18E-09
32.7133,-2.89E-09
32.7037,-2.59E-09
32.6941,-2.32E-09
32.6845,-2.08E-09
32.6749,-1.84E-09
32.6653,-1.37E-09
32.6558,-9.03E-10
32.6462,-4.31E-10
32.6366,3.22E-11
32.627,4.75E-10
32.6174,8.85E-10
32.6079,1.25E-09
32.5983,1.56E-09
32.5888,1.79E-09
32.5792,1.93E-09
32.5697,1.97E-09
32.5601,1.88E-09
32.5506,2.03E-09
32.5411,2.14E-09
32.5316,2.21E-09
32.522,2.25E-09
32.5125,2.26E-09
32.503,2.23E-09
32.4935,2.17E-09
32.484,2.09E-09
32.4745,1.99E-09
32.4651,1.87E-09
32.4556,1.74E-09
32.4461,1.61E-09
32.4366,1.40E-09
32.4272,1.17E-09
32.4177,9.23E-10
32.4083,6.70E-10
32.3988,4.18E-10
32.3894,1.74E-10
32.38,-5.59E-11
32.3706,-2.62E-10
32.3611,-4.36E-10
32.3517,-5.67E-10
32.3423,-6.45E-10
32.3329,-6.59E-10
32.3236,-7.34E-10
32.3142,-8.64E-10
32.3048,-9.78E-10
32.2954,-1.07E-09
32.2861,-1.15E-09
32.2767,-1.21E-09
32.2674,-1.24E-09
32.258,-1.25E-09
32.2487,-1.25E-09
32.2394,-1.22E-09
32.2301,-1.17E-09
32.2208,-1.10E-09
32.2115,-1.02E-09
32.2022,-9.25E-10
32.1929,-8.18E-10
32.1836,-7.03E-10
32.1743,-5.81E-10
32.1651,-4.56E-10
32.1558,-3.32E-10
32.1466,-2.15E-10
32.1373,-1.08E-10
32.1281,-1.83E-11
32.1189,4.94E-11
32.1097,8.83E-11
32.1005,1.20E-10
32.0913,2.21E-10
32.0821,3.15E-10
32.0729,4.03E-10
32.0637,4.82E-10
32.0546,5.50E-10
32.0454,6.07E-10
32.0363,6.50E-10
32.0271,6.79E-10
32.018,6.92E-10
32.0089,6.87E-10
31.9998,6.64E-10
31.9907,6.23E-10
31.9816,5.99E-10
31.9725,5.67E-10
31.9634,5.26E-10
31.9544,4.79E-10
31.9453,4.27E-10
31.9362,3.72E-10
31.9272,3.16E-10
31.9182,2.61E-10
31.9092,2.10E-10
31.9001,1.66E-10
31.8911,1.32E-10
31.8821,1.12E-10
31.8732,1.03E-11
31.8642,-1.16E-10
31.8552,-2.51E-10
31.8463,-3.94E-10
31.8373,-5.44E-10
31.8284,-6.99E-10
31.8194,-8.57E-10
31.8105,-1.01E-09
31.8016,-1.17E-09
31.7927,-1.32E-09
31.7838,-1.46E-09
31.7749,-1.59E-09
31.7661,-1.70E-09
31.7572,-1.79E-09
31.7484,-1.86E-09
31.7395,-1.89E-09
31.7307,-1.88E-09
31.7219,-1.84E-09
31.7131,-1.74E-09
31.7043,-1.81E-09
31.6955,-1.95E-09
31.6867,-2.09E-09
31.6779,-2.23E-09
31.6691,-2.36E-09
31.6604,-2.50E-09
31.6516,-2.62E-09
31.6429,-2.74E-09
31.6342,-2.84E-09
31.6255,-2.94E-09
31.6168,-3.02E-09
31.6081,-3.08E-09
31.5994,-3.12E-09
31.5907,-3.13E-09
31.5821,-3.12E-09
31.5734,-3.07E-09
31.5648,-2.99E-09
31.5562,-2.87E-09
31.5475,-2.71E-09
31.5389,-2.65E-09
31.5303,-2.66E-09
31.5217,-2.66E-09
31.5132,-2.65E-09
31.5046,-2.64E-09
31.496,-2.63E-09
31.4875,-2.60E-09
31.4789,-2.58E-09
31.4704,-2.54E-09
31.4619,-2.50E-09
31.4534,-2.45E-09
31.4449,-2.39E-09
31.4364,-2.32E-09
31.4279,-2.25E-09
31.4195,-2.16E-09
31.411,-2.07E-09
31.4026,-1.96E-09
31.3942,-1.85E-09
31.3857,-1.72E-09
31.3773,-1.61E-09
31.3689,-1.52E-09
31.3605,-1.43E-09
31.3522,-1.34E-09
31.3438,-1.24E-09
31.3354,-1.15E-09
31.3271,-1.06E-09
31.3187,-9.71E-10
31.3104,-8.84E-10
31.3021,-7.99E-10
31.2938,-7.17E-10
31.2855,-6.39E-10
31.2772,-5.65E-10
31.269,-4.97E-10
31.2607,-4.34E-10
31.2524,-3.78E-10
31.2442,-3.29E-10
31.236,-2.89E-10
31.2278,-2.57E-10
31.2195,-2.18E-10
31.2114,-1.67E-10
31.2032,-1.20E-10
31.195,-7.60E-11
31.1868,-3.58E-11
31.1787,6.58E-13
31.1705,3.34E-11
31.1624,6.23E-11
31.1543,8.74E-11
31.1462,1.09E-10
31.1381,1.26E-10
31.13,1.40E-10
31.1219,1.50E-10
31.1138,1.57E-10
31.1058,1.60E-10
31.0977,1.59E-10
31.0897,1.56E-10
31.0817,1.49E-10
31.0737,1.40E-10
31.0657,1.28E-10
31.0577,1.13E-10
31.0497,9.58E-11
31.0417,7.69E-11
31.0338,5.63E-11
31.0258,3.45E-11
31.0179,1.18E-11
31.01,-1.14E-11
31.002,-3.47E-11
30.9941,-5.76E-11
30.9863,-7.98E-11
30.9784,-1.01E-10
30.9705,-1.20E-10
30.9626,-1.36E-10
30.9548,-1.50E-10
30.947,-1.60E-10
30.9391,-1.66E-10
30.9313,-1.67E-10
30.9235,-1.62E-10
30.9157,-1.60E-10
30.9079,-1.76E-10
30.9001,-1.90E-10
30.8924,-2.04E-10
30.8846,-2.16E-10
30.8769,-2.27E-10
30.8692,-2.36E-10
30.8614,-2.44E-10
30.8537,-2.51E-10
30.846,-2.55E-10
30.8383,-2.58E-10
30.8307,-2.59E-10
30.823,-2.58E-10
30.8154,-2.55E-10
30.8077,-2.50E-10
30.8001,-2.43E-10
30.7925,-2.33E-10
30.7848,-2.22E-10
30.7772,-2.08E-10
30.7696,-1.93E-10
30.7621,-1.80E-10
30.7545,-1.66E-10
30.7469,-1.52E-10
30.7394,-1.36E-10
30.7319,-1.20E-10
30.7243,-1.04E-10
30.7168,-8.73E-11
30.7093,-7.05E-11
30.7018,-5.39E-11
30.6943,-3.77E-11
30.6869,-2.22E-11
30.6794,-7.67E-12
30.672,5.64E-12
30.6645,1.74E-11
30.6571,2.72E-11
30.6497,3.49E-11
30.6423,3.99E-11
30.6349,4.18E-11
30.6275,4.23E-11
30.6201,5.51E-11
30.6127,6.73E-11
30.6054,7.91E-11
30.598,9.01E-11
30.5907,1.00E-10
30.5834,1.10E-10
30.5761,1.18E-10
30.5688,1.26E-10
30.5615,1.32E-10
30.5542,1.37E-10
30.5469,1.41E-10
30.5396,1.44E-10
30.5324,1.45E-10
30.5252,1.45E-10
30.5179,1.43E-10
30.5107,1.39E-10
30.5035,1.34E-10
30.4963,1.27E-10
30.4891,1.17E-10
30.4819,1.13E-10
30.4748,1.07E-10
30.4676,1.01E-10
30.4605,9.45E-11
30.4533,8.72E-11
30.4462,7.96E-11
30.4391,7.16E-11
30.432,6.34E-11
30.4249,5.51E-11
30.4178,4.67E-11
30.4107,3.86E-11
30.4037,3.07E-11
30.3966,2.32E-11
30.3896,1.63E-11
30.3825,1.02E-11
30.3755,5.01E-12
30.3685,9.76E-13
30.3615,-1.72E-12
30.3545,-2.88E-12
30.3475,-1.03E-11
30.3406,-1.82E-11
30.3336,-2.58E-11
30.3267,-3.31E-11
30.3197,-4.01E-11
30.3128,-4.67E-11
30.3059,-5.29E-11
30.299,-5.85E-11
30.2921,-6.35E-11
30.2852,-6.79E-11
30.2783,-7.16E-11
30.2714,-7.45E-11
30.2646,-7.65E-11
30.2577,-7.75E-11
30.2509,-7.76E-11
30.244,-7.66E-11
30.2372,-7.44E-11
30.2304,-7.11E-11
30.2236,-6.64E-11
30.2168,-6.43E-11
30.21,-6.25E-11
30.2033,-6.03E-11
30.1965,-5.78E-11
30.1898,-5.48E-11
30.183,-5.16E-11
30.1763,-4.81E-11
30.1696,-4.44E-11
30.1629,-4.05E-11
30.1562,-3.65E-11
30.1495,-3.24E-11
30.1428,-2.84E-11
30.1361,-2.45E-11
30.1294,-2.08E-11
30.1228,-1.73E-11
30.1161,-1.42E-11
30.1095,-1.15E-11
30.1029,-9.35E-12
30.0963,-7.87E-12
30.0897,-4.14E-12
30.0831,5.18E-13
30.0765,5.12E-12
30.0699,9.63E-12
30.0634,1.40E-11
30.0568,1.82E-11
30.0503,2.22E-11
30.0437,2.59E-11
30.0372,2.94E-11
30.0307,3.25E-11
30.0242,3.52E-11
30.0177,3.74E-11
30.0112,3.92E-11
30.0047,4.04E-11
29.9982,4.11E-11
29.9918,4.11E-11
29.9853,4.03E-11
29.9789,3.89E-11
29.9724,3.66E-11
29.966,3.55E-11
29.9596,3.52E-11
29.9532,3.46E-11
29.9468,3.38E-11
29.9404,3.28E-11
29.9341,3.16E-11
29.9277,3.02E-11
29.9213,2.87E-11
29.915,2.70E-11
29.9086,2.52E-11
29.9023,2.33E-11
29.896,2.14E-11
29.8897,1.94E-11
29.8834,1.74E-11
29.8771,1.56E-11
29.8708,1.38E-11
29.8645,1.21E-11
29.8583,1.07E-11
29.852,9.47E-12
29.8458,7.56E-12
29.8395,4.89E-12
29.8333,2.21E-12
29.8271,-4.50E-13
29.8209,-3.07E-12
29.8147,-5.63E-12
29.8085,-8.10E-12
29.8023,-1.05E-11
29.7961,-1.27E-11
29.79,-1.47E-11
29.7838,-1.65E-11
29.7776,-1.81E-11
29.7715,-1.95E-11
29.7654,-2.05E-11
29.7593,-2.12E-11
29.7531,-2.15E-11
29.747,-2.14E-11
29.741,-2.08E-11
29.7349,-1.98E-11
29.7288,-1.92E-11
29.7227,-1.94E-11
29.7167,-1.95E-11
29.7106,-1.95E-11
29.7046,-1.93E-11
29.6985,-1.90E-11
29.6925,-1.86E-11
29.6865,-1.80E-11
29.6805,-1.74E-11
29.6745,-1.67E-11
29.6685,-1.59E-11
29.6625,-1.50E-11
29.6566,-1.41E-11
29.6506,-1.31E-11
29.6446,-1.21E-11
29.6387,-1.11E-11
29.6328,-1.02E-11
29.6268,-9.24E-12
29.6209,-8.37E-12
29.615,-7.33E-12
29.6091,-5.85E-12
29.6032,-4.34E-12
29.5973,-2.82E-12
29.5914,-1.30E-12
29.5856,2.00E-13
29.5797,1.67E-12
29.5738,3.09E-12
29.568,4.45E-12
29.5622,5.73E-12
29.5563,6.90E-12
29.5505,7.95E-12
29.5447,8.87E-12
29.5389,9.61E-12
29.5331,1.02E-11
29.5273,1.05E-11
29.5215,1.06E-11
29.5158,1.05E-11
29.51,1.01E-11
29.5043,9.69E-12
29.4985,1.00E-11
29.4928,1.03E-11
29.4871,1.05E-11
29.4813,1.06E-11
29.4756,1.07E-11
29.4699,1.07E-11
29.4642,1.06E-11
29.4585,1.04E-11
29.4529,1.02E-11
29.4472,9.93E-12
29.4415,9.60E-12
29.4359,9.21E-12
29.4302,8.78E-12
29.4246,8.31E-12
29.4189,7.80E-12
29.4133,7.28E-12
29.4077,6.74E-12
29.4021,6.19E-12
29.3965,5.61E-12
29.3909,4.83E-12
29.3853,4.02E-12
29.3797,3.20E-12
29.3742,2.36E-12
29.3686,1.52E-12
29.3631,6.81E-13
29.3575,-1.40E-13
29.352,-9.35E-13
29.3465,-1.70E-12
29.3409,-2.41E-12
29.3354,-3.07E-12
29.3299,-3.65E-12
29.3244,-4.16E-12
29.3189,-4.56E-12
29.3134,-4.86E-12
29.308,-5.03E-12
29.3025,-5.07E-12
29.297,-4.94E-12
29.2916,-4.71E-12
29.2861,-5.02E-12
29.2807,-5.30E-12
29.2753,-5.54E-12
29.2699,-5.74E-12
29.2644,-5.90E-12
29.259,-6.01E-12
29.2536,-6.08E-12
29.2482,-6.11E-12
29.2429,-6.10E-12
29.2375,-6.05E-12
29.2321,-5.95E-12
29.2268,-5.82E-12
29.2214,-5.65E-12
29.2161,-5.44E-12
29.2107,-5.19E-12
29.2054,-4.91E-12
29.2001,-4.61E-12
